date,equity,cash,positions
2024-05-28,1000000.0,1000000.0,0
2024-05-29,1000000.0,1000000.0,0
2024-05-30,1000000.0,1000000.0,0
2024-05-31,1000000.0,1000000.0,0
2024-06-03,1000000.0,1000000.0,0
2024-06-04,1000000.0,1000000.0,0
2024-06-05,1000000.0,1000000.0,0
2024-06-06,1000000.0,1000000.0,0
2024-06-07,1000000.0,1000000.0,0
2024-06-11,1000000.0,1000000.0,0
2024-06-12,1000000.0,1000000.0,0
2024-06-13,1000000.0,1000000.0,0
2024-06-14,1000000.0,1000000.0,0
2024-06-17,1000000.0,1000000.0,0
2024-06-18,1000000.0,1000000.0,0
2024-06-19,1000000.0,1000000.0,0
2024-06-20,1000000.0,1000000.0,0
2024-06-21,1000000.0,1000000.0,0
2024-06-24,1000000.0,1000000.0,0
2024-06-25,1000000.0,1000000.0,0
2024-06-26,1000000.0,1000000.0,0
2024-06-27,1000000.0,1000000.0,0
2024-06-28,1000000.0,1000000.0,0
2024-07-01,1000000.0,1000000.0,0
2024-07-02,1000000.0,1000000.0,0
2024-07-03,1000000.0,1000000.0,0
2024-07-04,1000000.0,1000000.0,0
2024-07-05,1000000.0,1000000.0,0
2024-07-08,1000000.0,1000000.0,0
2024-07-09,1000000.0,1000000.0,0
2024-07-10,1000000.0,1000000.0,0
2024-07-11,1000000.0,1000000.0,0
2024-07-12,1000000.0,1000000.0,0
2024-07-15,1000000.0,1000000.0,0
2024-07-16,1000000.0,1000000.0,0
2024-07-17,1000000.0,1000000.0,0
2024-07-18,1000000.0,1000000.0,0
2024-07-19,1000000.0,1000000.0,0
2024-07-22,1000000.0,1000000.0,0
2024-07-23,1000000.0,1000000.0,0
2024-07-24,1000000.0,1000000.0,0
2024-07-25,1000000.0,1000000.0,0
2024-07-26,1000000.0,1000000.0,0
2024-07-29,1000000.0,1000000.0,0
2024-07-30,998700.0,0.0,5
2024-07-31,1042214.854559154,0.0,5
2024-08-01,1040566.4262995995,0.0,5
2024-08-02,1000286.4869193138,0.0,5
2024-08-05,942327.5728441656,0.0,5
2024-08-06,960040.1306515838,0.0,5
2024-08-07,974868.1350376562,0.0,5
2024-08-08,971711.3594678978,0.0,5
2024-08-09,956207.5945236944,0.0,5
2024-08-12,948790.1407580809,0.0,5
2024-08-13,960391.3291793779,0.0,5
2024-08-14,953451.2517093446,0.0,5
2024-08-15,961747.6271535383,0.0,5
2024-08-16,968741.0299985292,0.0,5
2024-08-19,971834.37992512,0.0,5
2024-08-20,955884.8288581498,182648.84513663585,4
2024-08-21,955000.4149714038,182648.84513663585,4
2024-08-22,949150.5535480336,361984.70495722676,3
2024-08-23,964648.7589637397,361984.70495722676,3
2024-08-26,942277.3379130447,353102.0159031971,3
2024-08-27,932687.700283942,533777.2454241831,2
2024-08-28,936583.818760575,533777.2454241831,2
2024-08-29,935703.8555888452,346587.80505191727,3
2024-08-30,947559.0847893966,157026.70220729834,4
2024-09-02,923244.9232788715,0.0,5
2024-09-03,936837.7229958836,0.0,5
2024-09-04,923569.2869706955,0.0,5
2024-09-05,933467.5051066019,0.0,5
2024-09-06,911877.1981550688,145127.71959188106,4
2024-09-09,906060.6833750784,323488.8295185723,3
2024-09-10,918162.8797636132,323488.8295185723,3
2024-09-11,927432.1924386695,0.0,5
2024-09-12,929790.696410174,0.0,5
2024-09-13,918272.982330615,0.0,5
2024-09-18,908818.9841743618,0.0,5
2024-09-19,920945.1603326532,0.0,5
2024-09-20,923818.0302713001,0.0,5
2024-09-23,925936.524705671,0.0,5
2024-09-24,961809.8253092241,0.0,5
2024-09-25,997898.7042107112,0.0,5
2024-09-26,1023346.1332462241,0.0,5
2024-09-27,1082900.8344978124,0.0,5
2024-09-30,1238658.9445454646,0.0,5
2024-10-08,1432739.6836297265,0.0,5
2024-10-09,1366423.9991686025,0.0,5
2024-10-10,1324823.7558570334,0.0,5
2024-10-11,1249697.0793362514,0.0,5
2024-10-14,1339926.4549740225,0.0,5
2024-10-15,1309275.53319347,0.0,5
2024-10-16,1268525.428058946,246134.5460211742,4
2024-10-17,1307302.2378119433,246134.5460211742,4
2024-10-18,1402568.7569541805,246134.5460211742,4
2024-10-21,1496900.8641578143,246134.5460211742,4
2024-10-22,1522437.8037881593,246134.5460211742,4
2024-10-23,1564227.2261547064,246134.5460211742,4
2024-10-24,1596637.3300388372,246134.5460211742,4
2024-10-25,1604261.4858198036,246134.5460211742,4
2024-10-28,1640255.4275093265,803338.3180482669,2
2024-10-29,1635814.4112463319,803338.3180482669,2
2024-10-30,1686311.1544615729,803338.3180482669,2
2024-10-31,1652811.5177030754,803338.3180482669,2
2024-11-01,1608334.4421458812,803338.3180482669,2
2024-11-04,1642258.4240340127,803338.3180482669,2
2024-11-05,1684878.8239456562,803338.3180482669,2
2024-11-06,1671699.8531189442,803338.3180482669,2
2024-11-07,1690880.6290640733,803338.3180482669,2
2024-11-08,1762885.5090062374,803338.3180482669,2
2024-11-11,1731736.477023831,803338.3180482669,2
2024-11-12,1742937.5673573148,803338.3180482669,2
2024-11-13,1754021.694110422,803338.3180482669,2
2024-11-14,1684857.27645828,803338.3180482669,2
2024-11-15,1621292.44427056,803338.3180482669,2
2024-11-18,1599780.7606682633,803338.3180482669,2
2024-11-19,1622090.9557139392,803338.3180482669,2
2024-11-20,1632367.682704962,1632367.682704962,0
2024-11-21,1632367.682704962,1632367.682704962,0
2024-11-22,1632367.682704962,1632367.682704962,0
2024-11-25,1632367.682704962,1632367.682704962,0
2024-11-26,1632367.682704962,1632367.682704962,0
2024-11-27,1632367.682704962,1632367.682704962,0
2024-11-28,1632367.682704962,1632367.682704962,0
2024-11-29,1632367.682704962,1632367.682704962,0
2024-12-02,1632367.682704962,1632367.682704962,0
2024-12-03,1632367.682704962,1632367.682704962,0
2024-12-04,1632367.682704962,1632367.682704962,0
2024-12-05,1632367.682704962,1632367.682704962,0
2024-12-06,1631943.2671074588,1305894.1461639698,1
2024-12-09,1627352.1037052977,1305894.1461639698,1
2024-12-10,1628882.491506018,1305894.1461639698,1
2024-12-11,1630740.81954975,1305894.1461639698,1
2024-12-12,1629538.371992041,1305894.1461639698,1
2024-12-13,1636097.1768522714,1305894.1461639698,1
2024-12-16,1624415.437322797,980926.5671288612,2
2024-12-17,1606481.114272654,980926.5671288612,2
2024-12-18,1596774.2826129762,661488.6567495672,3
2024-12-19,1627230.7739355937,661488.6567495672,3
2024-12-20,1659518.4734719638,329498.64465202915,4
2024-12-23,1652020.5570859164,0.0,5
2024-12-24,1661031.0309739744,0.0,5
2024-12-25,1664528.8823018998,0.0,5
2024-12-26,1732836.6228073663,0.0,5
2024-12-27,1779251.706376612,0.0,5
2024-12-30,1802883.0878646346,0.0,5
2024-12-31,1719048.2357808691,0.0,5
2025-01-02,1637338.3230261016,0.0,5
2025-01-03,1549125.1156628884,892179.3901294579,2
2025-01-06,1477752.462541529,892179.3901294579,2
2025-01-07,1492744.0142914508,892179.3901294579,2
2025-01-08,1496854.4649844023,592730.6404576628,3
2025-01-09,1496370.7187829625,0.0,5
2025-01-10,1444895.3792088993,0.0,5
2025-01-13,1431997.5676704883,293862.8613362026,4
2025-01-14,1482598.1811893056,0.0,5
2025-01-15,1471138.96710961,0.0,5
2025-01-16,1487342.931859562,0.0,5
2025-01-17,1497644.6295936755,0.0,5
2025-01-20,1515912.1398747002,0.0,5
2025-01-21,1524096.7017897663,0.0,5
2025-01-22,1520642.6779542193,0.0,5
2025-01-23,1500609.6038574367,0.0,5
2025-01-24,1522934.0978952823,0.0,5
2025-01-27,1486684.5264545283,0.0,5
2025-02-05,1510553.7160091044,0.0,5
2025-02-06,1591140.2459632047,0.0,5
2025-02-07,1602363.9234086506,0.0,5
2025-02-10,1625727.049444342,0.0,5
2025-02-11,1607788.105276947,0.0,5
2025-02-12,1654446.0293377147,0.0,5
2025-02-13,1617399.0932561895,0.0,5
2025-02-14,1637504.6830056324,0.0,5
2025-02-17,1630733.6985984456,0.0,5
2025-02-18,1589908.3673318087,310677.82143109327,4
2025-02-19,1646841.814461995,310677.82143109327,4
2025-02-20,1643198.8176627387,310677.82143109327,4
2025-02-21,1701808.907711553,310677.82143109327,4
2025-02-24,1756349.963590691,310677.82143109327,4
2025-02-25,1744714.9045327199,310677.82143109327,4
2025-02-26,1755471.520269271,310677.82143109327,4
2025-02-27,1738542.3734624067,310677.82143109327,4
2025-02-28,1668854.6455468554,310677.82143109327,4
2025-03-03,1653560.4712408318,310677.82143109327,4
2025-03-04,1683551.760484695,310677.82143109327,4
2025-03-05,1697801.1517924194,310677.82143109327,4
2025-03-06,1715177.5955526414,999501.8543409235,2
2025-03-07,1740842.3810759108,999501.8543409235,2
2025-03-10,1751983.1628355205,999501.8543409235,2
2025-03-11,1756237.6650186172,999501.8543409235,2
2025-03-12,1756597.81390423,999501.8543409235,2
2025-03-13,1751173.0811185758,999501.8543409235,2
2025-03-14,1795356.6562760486,999501.8543409235,2
2025-03-17,1798844.6345221323,999501.8543409235,2
2025-03-18,1783774.6960531191,999501.8543409235,2
2025-03-19,1768025.0281167654,999501.8543409235,2
2025-03-20,1755453.7393756444,999501.8543409235,2
2025-03-21,1737244.441762229,999501.8543409235,2
2025-03-24,1703795.553007497,1703795.553007497,0
2025-03-25,1703795.553007497,1703795.553007497,0
2025-03-26,1703795.553007497,1703795.553007497,0
2025-03-27,1703795.553007497,1703795.553007497,0
2025-03-28,1703795.553007497,1703795.553007497,0
2025-03-31,1703795.553007497,1703795.553007497,0
2025-04-01,1703795.553007497,1703795.553007497,0
2025-04-02,1703795.553007497,1703795.553007497,0
2025-04-03,1703795.553007497,1703795.553007497,0
2025-04-07,1703795.553007497,1703795.553007497,0
2025-04-08,1703795.553007497,1703795.553007497,0
2025-04-09,1703795.553007497,1703795.553007497,0
2025-04-10,1702466.592476151,681518.2212029987,3
2025-04-11,1712519.1084983253,0.0,5
2025-04-14,1723707.9356786502,0.0,5
2025-04-15,1714321.0574609046,0.0,5
2025-04-16,1693204.4198647644,0.0,5
2025-04-17,1682355.1925023717,0.0,5
2025-04-18,1694097.2169863693,0.0,5
2025-04-21,1741197.2300335504,0.0,5
2025-04-22,1719137.0490660425,0.0,5
2025-04-23,1741753.0185226458,0.0,5
2025-04-24,1715950.0475978456,0.0,5
2025-04-25,1751320.9776922078,0.0,5
2025-04-28,1756676.3534058998,0.0,5
2025-04-29,1736065.9508554966,0.0,5
2025-04-30,1764623.0905190352,0.0,5
2025-05-06,1823616.9895386416,0.0,5
2025-05-07,1821964.4704586738,0.0,5
2025-05-08,1861142.1162360068,0.0,5
2025-05-09,1825686.007343147,0.0,5
2025-05-12,1851373.8375683618,0.0,5
2025-05-13,1831324.2909376766,0.0,5
2025-05-14,1842782.0689587216,0.0,5
2025-05-15,1785978.9011213058,0.0,5
2025-05-16,1787828.1099301858,0.0,5
2025-05-19,1761379.6235229345,0.0,5
2025-05-20,1774949.2399009094,326005.3827565949,4
2025-05-21,1760381.3123360816,326005.3827565949,4
2025-05-22,1819102.4544603573,676012.3578834638,3
2025-05-23,1798534.1680220214,676012.3578834638,3
2025-05-26,1811458.7365822522,1031005.2825977223,2
2025-05-27,1795670.5513759898,1378410.443461896,1
2025-05-28,1771152.4242659549,1378410.443461896,1
2025-05-29,1773402.9018592755,1023637.6221565014,2
2025-05-30,1744806.2020084495,1023637.6221565014,2
2025-06-03,1745008.077041429,1023637.6221565014,2
2025-06-04,1758627.5824921671,1023637.6221565014,2
2025-06-05,1775068.3568523868,1412709.5217990903,1
2025-06-06,1800555.2951961416,1052504.809534673,2
2025-06-09,1803382.9682758767,1052504.809534673,2
2025-06-10,1777970.8933799998,1052504.809534673,2
2025-06-11,1770724.3924176341,1052504.809534673,2
2025-06-12,1772265.6254242468,1052504.809534673,2
2025-06-13,1750135.6639861262,1052504.809534673,2
2025-06-16,1756958.3613936258,1052504.809534673,2
2025-06-17,1754125.403757817,1380911.2740728161,1
2025-06-18,1765295.1232871963,1027760.430195969,2
2025-06-19,1746355.9900605073,678398.3980555111,3
2025-06-20,1732335.7828498892,331841.1365975541,4
2025-06-23,1752642.8081358902,331841.1365975541,4
2025-06-24,1799560.1914476245,0.0,5
2025-06-25,1832152.305756505,0.0,5
2025-06-26,1805696.6499393433,0.0,5
2025-06-27,1874217.0967897251,0.0,5
2025-06-30,1894806.8631272991,0.0,5
2025-07-01,1913190.5966334757,0.0,5
2025-07-02,1856811.768218151,0.0,5
2025-07-03,1871082.166185593,0.0,5
2025-07-04,1838253.440906308,0.0,5
2025-07-07,1829873.8387793826,373559.8922696031,4
2025-07-08,1861099.2287554198,373559.8922696031,4
2025-07-09,1841671.5174108169,373559.8922696031,4
2025-07-10,1834276.7092437283,373559.8922696031,4
2025-07-11,1848395.9911650068,373559.8922696031,4
2025-07-14,1868684.8843099459,373559.8922696031,4
2025-07-15,1884944.6875413016,373559.8922696031,4
2025-07-16,1886954.8212577887,373559.8922696031,4
2025-07-17,1893977.4659947413,373559.8922696031,4
2025-07-18,1891781.7683326553,373559.8922696031,4
2025-07-21,1884056.4161344129,373559.8922696031,4
2025-07-22,1881348.0255372166,373559.8922696031,4
2025-07-23,1887313.171315123,373559.8922696031,4
2025-07-24,1906098.9384347342,373559.8922696031,4
2025-07-25,1924786.4478106005,373559.8922696031,4
2025-07-28,1953462.5362101344,373559.8922696031,4
2025-07-29,1963367.1698147245,373559.8922696031,4
2025-07-30,1964534.4682282042,373559.8922696031,4
2025-07-31,1989135.1607435986,373559.8922696031,4
2025-08-01,1950633.442791841,373559.8922696031,4
2025-08-04,1969558.944994055,373559.8922696031,4
2025-08-05,1979947.757482177,373559.8922696031,4
2025-08-06,2003306.1815808993,773871.5210837842,3
2025-08-07,1978919.9464705843,773871.5210837842,3
2025-08-08,1990367.5190092733,773871.5210837842,3
2025-08-11,2015276.9218050062,773871.5210837842,3
2025-08-12,2104631.93813321,773871.5210837842,3
2025-08-13,2155424.1650440744,773871.5210837842,3
2025-08-14,2124417.264285509,773871.5210837842,3
2025-08-15,2205255.7471056944,773871.5210837842,3
2025-08-18,2316592.519709963,773871.5210837842,3
2025-08-19,2252847.2856826195,773871.5210837842,3
2025-08-20,2272580.1140958006,773871.5210837842,3
2025-08-21,2205324.912939105,773871.5210837842,3
2025-08-22,2290583.581800345,773871.5210837842,3
2025-08-25,2302027.8465502807,773871.5210837842,3
2025-08-26,2266908.2536656866,773871.5210837842,3
2025-08-27,2269979.9003720013,773871.5210837842,3
2025-08-28,2372858.106000466,773871.5210837842,3
2025-08-29,2426717.778384546,773871.5210837842,3
2025-09-01,2460998.4235735484,773871.5210837842,3
2025-09-02,2362368.217288601,773871.5210837842,3
2025-09-03,2402376.683767028,773871.5210837842,3
2025-09-04,2261153.548084669,773871.5210837842,3
2025-09-05,2307653.36801665,773871.5210837842,3
2025-09-08,2294423.634037772,773871.5210837842,3
2025-09-09,2241231.8684355663,773871.5210837842,3
2025-09-10,2301700.1352488436,773871.5210837842,3
2025-09-11,2350871.476403621,773871.5210837842,3
2025-09-12,2327355.070435653,773871.5210837842,3
2025-09-15,2335508.599739659,773871.5210837842,3
2025-09-16,2380154.817544979,773871.5210837842,3
2025-09-17,2387895.115818289,773871.5210837842,3
2025-09-18,2479005.3148220265,773871.5210837842,3
2025-09-19,2447658.4537659558,773871.5210837842,3
2025-09-22,2510528.112365523,773871.5210837842,3
2025-09-23,2460379.6443745643,773871.5210837842,3
2025-09-24,2514728.439736866,773871.5210837842,3
2025-09-25,2552569.521400635,263224.84866882925,4
2025-09-26,2463171.629754087,263224.84866882925,4
2025-09-29,2503890.9809661782,263224.84866882925,4
2025-09-30,2553953.478446637,263224.84866882925,4
2025-10-09,2667421.896889463,263224.84866882925,4
2025-10-10,2652525.8607472917,263224.84866882925,4
2025-10-13,2637465.115903935,936178.8956570383,3
2025-10-14,2510651.753527499,936178.8956570383,3
2025-10-15,2509461.0460988474,936178.8956570383,3
2025-10-16,2509891.753252609,1399559.830892675,2
2025-10-17,2424397.109775443,1399559.830892675,2
2025-10-20,2451191.320657997,1399559.830892675,2
2025-10-21,2481554.932462981,1399559.830892675,2
2025-10-22,2466994.9244189616,1399559.830892675,2
2025-10-23,2453942.9662722875,908643.5994180342,3
2025-10-24,2550522.5808865908,908643.5994180342,3
2025-10-27,2615368.081754623,1552973.3065137672,2
2025-10-28,2595484.7929904736,514239.2476069462,4
2025-10-29,2600166.6759166955,0.0,5
2025-10-30,2533417.379616942,0.0,5
2025-10-31,2512294.620388059,0.0,5
2025-11-03,2516525.0543219107,0.0,5
2025-11-04,2473257.6385393175,0.0,5
2025-11-05,2435051.737806862,0.0,5
2025-11-06,2485679.636077535,0.0,5
2025-11-07,2455926.1841507545,0.0,5
2025-11-10,2477351.3984845257,0.0,5
2025-11-11,2437186.2543897377,0.0,5
2025-11-12,2399839.1392091876,0.0,5
2025-11-13,2425628.10719842,0.0,5
2025-11-14,2316435.8162670904,0.0,5
2025-11-17,2372398.6897787564,0.0,5
2025-11-18,2393108.4298020774,0.0,5
2025-11-19,2367958.197745767,449661.36334827536,4
2025-11-20,2359984.1494275704,895264.5313529362,3
2025-11-21,2351106.513297099,1352330.1402938245,2
2025-11-24,2365743.1527275946,405540.54861511383,4
2025-11-25,2450573.637564163,0.0,5
2025-11-26,2466468.6029374236,0.0,5
2025-11-27,2444282.4894121448,0.0,5
2025-11-28,2429185.310087215,0.0,5
2025-12-01,2442471.8610971435,0.0,5
2025-12-02,2391179.8682273137,0.0,5
2025-12-03,2332722.520448945,0.0,5
2025-12-04,2311903.0669045374,53427.60799943417,5
2025-12-05,2372300.4062132114,53427.60799943417,5
2025-12-08,2504517.235919394,53427.60799943417,5
2025-12-09,2585327.69761583,53427.60799943417,5
2025-12-10,2569840.6722566676,53427.60799943417,5
2025-12-11,2465821.9938033014,53427.60799943417,5
2025-12-12,2530885.708400353,53427.60799943417,5
2025-12-15,2475887.8907272303,53427.60799943417,5
2025-12-16,2443396.312129959,467829.8662281525,4
2025-12-17,2584353.2160329823,467829.8662281525,4
2025-12-18,2555356.691159103,467829.8662281525,4
2025-12-19,2505159.4277049676,467829.8662281525,4
2025-12-22,2583882.6377727482,0.0,5
2025-12-23,2662062.2463182826,0.0,5
2025-12-24,2708179.5393755166,0.0,5
2025-12-25,2696815.616240136,0.0,5
2025-12-26,2694986.7326852106,0.0,5
2025-12-29,2717237.5156154605,0.0,5
2025-12-30,2756090.960940961,0.0,5
2025-12-31,2713029.727992355,0.0,5
2026-01-05,2776048.524942248,0.0,5
2026-01-06,2767910.449558448,0.0,5
2026-01-07,2832656.7818009644,0.0,5
2026-01-08,2787500.0918283868,622437.2993217683,4
2026-01-09,2821109.835452836,622437.2993217683,4
2026-01-12,2886432.6205635644,622437.2993217683,4
2026-01-13,2798151.1570175043,1186511.3470111294,3
2026-01-14,2813894.4032505094,1186511.3470111294,3
2026-01-15,2869190.4296934847,1186511.3470111294,3
2026-01-16,2951680.307298845,1186511.3470111294,3
2026-01-19,2997192.2503506467,1186511.3470111294,3
2026-01-20,3005084.3415877637,1186511.3470111294,3
2026-01-21,3062392.932852747,1186511.3470111294,3
2026-01-22,3043087.10461579,1186511.3470111294,3
2026-01-23,3048936.064672072,1186511.3470111294,3
2026-01-26,2962060.704570337,1706579.9677899857,2
2026-01-27,2986841.153711321,1706579.9677899857,2
2026-01-28,3029716.7300740695,2349463.407466463,1
2026-01-29,2996477.7515313597,2349463.407466463,1
2026-01-30,3003906.159614768,2349463.407466463,1
2026-02-02,2963868.2990974127,2349463.407466463,1
2026-02-03,2988343.623276139,2988343.623276139,0
2026-02-04,2988343.623276139,2988343.623276139,0
2026-02-05,2988343.623276139,2988343.623276139,0
2026-02-06,2988343.623276139,2988343.623276139,0
2026-02-09,2988343.623276139,2988343.623276139,0
2026-02-10,2988343.623276139,2988343.623276139,0
2026-02-11,2988343.623276139,2988343.623276139,0
2026-02-12,2988343.623276139,2988343.623276139,0
2026-02-13,2988343.623276139,2988343.623276139,0
2026-02-24,2988343.623276139,2988343.623276139,0
2026-02-25,2988343.623276139,2988343.623276139,0
2026-02-26,2988343.623276139,2988343.623276139,0
2026-02-27,2987566.6539340876,2390674.8986209114,1
2026-03-02,2971059.780314204,2390674.8986209114,1
2026-03-03,2932276.6403529234,2390674.8986209114,1
2026-03-04,2953671.4716952,2390674.8986209114,1
2026-03-05,2944977.3173856977,2390674.8986209114,1
2026-03-06,3011846.1816371204,2390674.8986209114,1
2026-03-09,3022904.1843533535,2390674.8986209114,1
2026-03-10,3039130.601382608,2390674.8986209114,1
2026-03-11,3018232.9126688777,1786871.3271585556,2
2026-03-12,3032597.7174576484,1786871.3271585556,2
2026-03-13,3018750.1955570513,1786871.3271585556,2
2026-03-16,3034326.886916621,1786871.3271585556,2
2026-03-17,2986801.3486755434,1786871.3271585556,2
2026-03-18,3096598.725110558,1786871.3271585556,2
2026-03-19,3074566.939504089,1786871.3271585556,2
2026-03-20,3042279.4623078387,1786871.3271585556,2
2026-03-23,2967657.583357624,1786871.3271585556,2
2026-03-24,2977250.274581329,1786871.3271585556,2
2026-03-25,3011216.6641026614,1786871.3271585556,2
2026-03-26,2983683.6742507145,1786871.3271585556,2
2026-03-27,2962221.3627188215,1177395.5179947596,3
2026-03-30,2936028.102856185,590037.1842567507,4
2026-03-31,2873438.622754137,590037.1842567507,4
2026-04-01,2923564.4182060943,590037.1842567507,4
2026-04-02,2819689.909983138,590037.1842567507,4
2026-04-03,2831922.2382833255,590037.1842567507,4
2026-04-07,2834122.8411149536,23065.203318716027,5
2026-04-08,3056697.6575557846,23065.203318716027,5
2026-04-09,3057451.4920298094,23065.203318716027,5
2026-04-10,3054594.799315298,23065.203318716027,5
2026-04-13,3081271.646784126,23065.203318716027,5
2026-04-14,3126051.626784745,23065.203318716027,5
2026-04-15,3061655.1761116507,23065.203318716027,5
2026-04-16,3111103.0912774066,23065.203318716027,5
2026-04-17,3132853.6517420546,23065.203318716027,5
2026-04-20,3189661.767060904,23065.203318716027,5
2026-04-21,3161212.0932533983,23065.203318716027,5
2026-04-22,3225391.558927167,23065.203318716027,5
2026-04-23,3184740.567695112,23065.203318716027,5
2026-04-24,3200291.4716434227,23065.203318716027,5
2026-04-27,3233871.4330198895,23065.203318716027,5
2026-04-28,3125547.6748844096,23065.203318716027,5
2026-04-29,3202083.101509138,602612.6867570941,4
2026-04-30,3171621.573030929,602612.6867570941,4
2026-05-06,3260232.26218538,602612.6867570941,4
2026-05-07,3372369.137753123,602612.6867570941,4
2026-05-08,3347023.4418100826,602612.6867570941,4
2026-05-11,3374304.0501648644,602612.6867570941,4
2026-05-12,3403887.5321031464,602612.6867570941,4
2026-05-13,3581421.2219910827,602612.6867570941,4
2026-05-14,3568421.1322952034,602612.6867570941,4
2026-05-15,3528604.999343425,602612.6867570941,4
2026-05-18,3575396.2510946807,1177990.527513863,3
2026-05-19,3632063.916699514,1177990.527513863,3
2026-05-20,3745458.0683359494,1177990.527513863,3
2026-05-21,3616963.6268849885,1177990.527513863,3
2026-05-22,3745725.9705573507,1177990.527513863,3
2026-05-25,3917013.8406318715,1177990.527513863,3
2026-05-26,3842645.352360326,1868053.617106684,2
2026-05-27,3775188.1694633295,1868053.617106684,2
2026-05-28,3784911.7326477347,1868053.617106684,2
2026-05-29,3732208.6410746872,1868053.617106684,2
2026-06-01,3615183.524892009,1868053.617106684,2
2026-06-02,3657580.100940029,1868053.617106684,2
2026-06-03,3659873.0068253484,1868053.617106684,2
2026-06-04,3728999.005733704,2924420.785589874,1
2026-06-05,3710008.281909627,2924420.785589874,1
2026-06-08,3645931.6669924157,2924420.785589874,1
2026-06-09,3685484.28963321,2924420.785589874,1
2026-06-10,3761583.8088419237,2924420.785589874,1
2026-06-11,3845334.2671452295,2924420.785589874,1
2026-06-12,3832901.4911165168,2924420.785589874,1
2026-06-15,3871788.7466631997,2149861.6508822097,2
2026-06-16,3890858.6415297776,0.0,5
2026-06-17,4000584.600162235,0.0,5
2026-06-18,4149784.00386894,0.0,5
2026-06-22,4302581.296041912,0.0,5
2026-06-23,4188515.5751642967,0.0,5
2026-06-24,4338211.42108973,0.0,5
2026-06-25,4437957.052167468,0.0,5
2026-06-26,4305757.447532771,0.0,5
2026-06-29,4404359.544480245,0.0,5
2026-06-30,4847154.340927042,0.0,5
2026-07-01,4969236.000441296,0.0,5
2026-07-02,4800805.444544529,0.0,5
2026-07-03,4790502.2946678335,0.0,5
